#Wave		#Intensity
3399.408203	928.158752
3398.738281	862.123718
3398.067383	942.666565
3397.396484	927.830688
3396.725586	858.000061
3396.054688	916.504700
3395.383789	938.334900
3394.711914	960.157349
3394.041016	956.323547
3393.369141	941.500732
3392.697266	974.299316
3392.026367	937.505737
3391.354492	992.262207
3390.681641	984.765076
3390.009766	977.270508
3389.337891	1002.714478
3388.665039	940.335938
3387.993164	951.144348
3387.320312	1078.992188
3386.647461	976.406616
3385.974609	990.859070
3385.301758	1016.273438
3384.628906	1027.058716
3383.956055	986.678894
3383.282227	990.158081
3382.609375	1048.432007
3381.935547	1044.594116
3381.261719	1051.712769
3380.587891	1040.573242
3379.914062	1014.835693
3379.240234	1054.804321
3378.566406	1076.512817
3377.891602	1094.564941
3377.217773	1065.187988
3376.542969	1086.882935
3375.868164	1057.517700
3375.193359	1060.976440
3374.518555	1140.985596
3373.843750	1035.088013
3373.168945	1122.361450
3372.494141	1173.170044
3371.818359	1169.319580
3371.142578	1129.049438
3370.467773	1114.283691
3369.791992	1114.086304
3369.116211	1113.889038
3368.440430	1164.644897
3367.763672	1102.577759
3367.087891	1146.041138
3366.411133	1200.401855
3365.735352	1207.463013
3365.058594	1138.159546
3364.381836	1167.043091
3363.705078	1243.171265
3363.028320	1184.801270
3362.351562	1268.166748
3361.673828	1151.683716
3360.997070	1311.306396
3360.319336	1125.853027
3359.642578	1299.948120
3358.964844	1317.870239
3358.287109	1168.812622
3357.609375	1281.110840
3356.930664	1255.483765
3356.252930	1287.912476
3355.575195	1251.411255
3354.896484	1291.082397
3354.217773	1265.471436
3353.539062	1294.249878
3352.861328	1279.521484
3352.181641	1304.662964
3351.502930	1297.184692
3350.824219	1329.559692
3350.144531	1253.258911
3349.465820	1354.438477
3348.786133	1231.089233
3348.106445	1390.160034
3347.426758	1295.804565
3346.747070	1418.618042
3346.067383	1324.291016
3345.387695	1302.350220
3344.707031	1349.140015
3344.027344	1309.120728
3343.346680	1446.285522
3342.666016	1402.647949
3341.985352	1406.013306
3341.304688	1409.377563
3340.624023	1391.061646
3339.943359	1416.102173
3339.261719	1549.489746
3338.581055	1430.044312
3337.899414	1372.021118
3337.217773	1389.827148
3336.536133	1476.203491
3335.854492	1537.288574
3335.172852	1468.463257
3334.491211	1406.877075
3333.808594	1482.368652
3333.126953	1474.893066
3332.444336	1496.263794
3331.761719	1550.070312
3331.079102	1510.148926
3330.396484	1549.519531
3329.713867	1534.832642
3329.031250	1631.820801
3328.347656	1541.490479
3327.665039	1602.433105
3326.981445	1602.148315
3326.297852	1515.470947
3325.615234	1601.578979
3324.931641	1601.294312
3324.247070	1507.467529
3323.563477	1654.682129
3322.879883	1517.721069
3322.195312	1621.731079
3321.510742	1646.609253
3320.827148	1649.911133
3320.142578	1610.084473
3319.458008	1728.377075
3318.773438	1634.660522
3318.087891	1637.961792
3317.403320	1619.713623
3316.717773	1662.514526
3316.033203	1655.038574
3315.347656	1701.407227
3314.662109	1697.515747
3313.976562	1603.920898
3313.291016	1643.098633
3312.604492	1714.544556
3311.918945	1753.688599
3311.233398	1635.050537
3310.546875	1616.834595
3309.860352	1745.583862
3309.173828	1748.856934
3308.487305	1651.802368
3307.800781	1705.245117
3307.114258	1755.086914
3306.426758	1708.219360
3305.740234	1768.784302
3305.052734	1757.729736
3304.365234	1725.203491
3303.677734	1900.248901
3302.990234	1792.571045
3302.302734	1792.251831
3301.615234	1827.699829
3300.926758	1834.526489
3300.239258	1762.691040
3299.550781	1887.495239
3298.862305	1922.900757
3298.174805	1804.631836
3297.485352	1807.883179
3296.796875	1879.006348
3296.108398	1828.668945
3295.419922	1817.630249
3294.730469	1835.158081
3294.041016	1877.667725
3293.352539	1838.073364
3292.663086	1837.745850
3291.973633	1837.418335
3291.283203	1854.926758
3290.593750	1804.664673
3289.904297	1843.567871
3289.213867	1964.458130
3288.523438	1924.897095
3287.833984	1903.170044
3287.143555	1877.887329
3286.453125	1945.244263
3285.762695	1887.904053
3285.071289	1780.724121
3284.380859	1858.744507
3283.689453	1918.936035
3282.999023	1925.713013
3282.307617	2042.813477
3281.616211	1925.026123
3280.924805	1963.816895
3280.233398	1931.453613
3279.541016	1877.763550
3278.849609	1944.987549
3278.157227	1887.758911
3277.465820	1873.204346
3276.773438	1968.823608
3276.081055	1972.025513
3275.388672	1925.490356
3274.695312	1907.387085
3274.002930	2034.893433
3273.310547	1906.706421
3272.617188	1952.516602
3271.923828	1955.717529
3271.231445	1909.234497
3270.538086	1958.567505
3269.843750	1947.575439
3269.150391	1869.196777
3268.457031	1829.854614
3267.762695	1925.259033
3267.069336	1839.836060
3266.375000	1821.786011
3265.680664	1984.470703
3264.986328	1913.255127
3264.291992	1905.828613
3263.597656	1937.364380
3262.903320	1929.936035
3262.208008	1904.807617
3261.513672	1794.730347
3260.818359	1946.598389
3260.123047	1953.328003
3259.427734	1871.604858
3258.732422	1888.957397
3258.037109	1892.156616
3257.340820	1987.293457
3256.645508	1873.803101
3255.949219	1820.445557
3255.252930	1873.133423
3254.556641	1876.332275
3253.860352	1932.524170
3253.164062	1893.323242
3252.467773	1847.072876
3251.771484	1807.901123
3251.074219	1807.577881
3250.376953	1831.963257
3249.680664	1859.869019
3248.983398	1774.851807
3248.286133	1711.032227
3247.588867	1784.798950
3246.890625	1886.752319
3246.193359	1759.478516
3245.495117	1755.638550
3244.797852	1776.473022
3244.099609	1747.962280
3243.401367	1701.844360
3242.703125	1810.748413
3242.004883	1743.502197
3241.305664	1757.276733
3240.607422	1721.752686
3239.908203	1665.119263
3239.209961	1700.018311
3238.510742	1801.767334
3237.811523	1755.705078
3237.112305	1681.516724
3236.413086	1744.525146
3235.712891	1670.365234
3235.013672	1666.550293
3234.313477	1627.583740
3233.613281	1539.425659
3232.914062	1563.748291
3232.213867	1528.334229
3231.512695	1566.701172
3230.812500	1601.542236
3230.112305	1552.094116
3229.411133	1590.436035
3228.710938	1614.723145
3228.009766	1561.789307
3227.308594	1463.257324
3226.607422	1480.537231
3225.906250	1501.318481
3225.205078	1560.670776
3224.502930	1476.235229
3223.801758	1458.441406
3223.099609	1580.863525
3222.397461	1552.543457
3221.696289	1506.713501
3220.993164	1544.980347
3220.291016	1355.556152
3219.588867	1390.334229
3218.886719	1526.642578
3218.183594	1407.340210
3217.480469	1428.089233
3216.778320	1420.834106
3216.075195	1466.065918
3215.372070	1479.796509
3214.667969	1371.102173
3213.964844	1325.394287
3213.261719	1381.099976
3212.557617	1338.902344
3211.853516	1450.508789
3211.149414	1345.411377
3210.445312	1313.724609
3209.741211	1372.875366
3209.037109	1299.282593
3208.333008	1306.033691
3207.627930	1267.393555
3206.923828	1284.620239
3206.218750	1371.644531
3205.513672	1284.159424
3204.808594	1290.906860
3204.103516	1203.467529
3203.398438	1273.005249
3202.692383	1206.522705
3201.987305	1154.009644
3201.281250	1251.405151
3200.575195	1160.565918
3199.869141	1191.718628
3199.163086	1219.376099
3198.457031	1201.740723
3197.750977	1215.455688
3197.043945	1152.560547
3196.337891	1127.983521
3195.630859	1131.261841
3194.923828	1141.499268
3194.216797	1050.825806
3193.509766	1141.089355
3192.802734	1074.796631
3192.095703	1137.201904
3191.387695	1116.135254
3190.680664	1119.411255
3189.972656	1122.686035
3189.264648	1052.980591
3188.556641	1063.215210
3187.848633	1101.237427
3187.140625	1062.833130
3186.431641	1055.696777
3185.723633	1006.898254
3185.014648	1044.903198
3184.305664	954.474182
3183.596680	1058.408447
3182.887695	1023.522522
3182.178711	1092.717407
3181.469727	1054.369507
3180.759766	950.149048
3180.050781	1053.990479
3179.340820	960.206848
3178.630859	984.294983
3177.920898	914.813965
3177.210938	980.476501
3176.500977	959.516479
3175.791016	983.587280
3175.080078	979.947693
3174.370117	931.302185
3173.659180	889.597107
3172.948242	979.419006
3172.237305	986.163330
3171.526367	916.793945
3170.815430	968.513672
3170.103516	930.297546
3169.392578	950.876526
3168.680664	943.791260
3167.968750	919.426025
3167.256836	915.804688
3166.544922	926.005615
3165.833008	922.384338
3165.121094	828.960327
3164.408203	904.785461
3163.696289	880.453308
3162.983398	838.869202
3162.270508	973.327271
3161.557617	817.861816
3160.844727	838.416199
3160.131836	838.265259
3159.418945	862.257568
3158.705078	872.447510
3157.992188	834.364746
3157.278320	889.369141
3156.564453	978.819214
3155.850586	816.684387
3155.136719	899.224609
3154.421875	816.390259
3153.708008	833.463501
3152.993164	833.313354
3152.279297	891.691223
3151.564453	829.570923
3150.849609	905.136292
3150.134766	874.004517
3149.419922	877.287354
3148.704102	811.774536
3147.989258	790.993652
3147.273438	825.235901
3146.558594	904.158020
3145.842773	804.315002
3145.126953	852.282776
3144.411133	807.461060
3143.694336	845.104736
3142.978516	776.257080
3142.261719	875.707336
3141.545898	844.647705
3140.829102	823.897949
3140.112305	816.884827
3139.395508	912.824280
3138.678711	782.279663
3137.961914	826.734253
3137.244141	860.883240
3136.526367	891.590698
3135.809570	853.715515
3135.091797	757.578735
3134.374023	839.698181
3133.656250	822.413086
3132.938477	835.969116
3132.219727	852.945679
3131.501953	815.118225
3130.783203	808.122681
3130.064453	852.484009
3129.345703	759.908813
3128.626953	828.219543
3127.908203	838.335388
3127.189453	875.816833
3126.469727	800.406799
3125.750977	701.084473
3125.031250	793.279236
3124.311523	717.924805
3123.591797	892.116882
3122.872070	772.344849
3122.152344	755.121216
3121.431641	768.649719
3120.711914	809.498169
3119.991211	771.787109
3119.271484	819.448853
3118.550781	856.852112
3117.830078	805.500305
3117.108398	771.229553
3116.387695	801.797363
3115.666992	753.894470
3114.945312	798.096985
3114.223633	743.391907
3113.502930	790.989746
3112.781250	821.526184
3112.058594	773.662842
3111.336914	773.523010
3110.615234	844.929626
3109.892578	786.868835
3109.170898	796.943848
3108.448242	803.609985
3107.725586	844.318848
3107.002930	772.684387
3106.280273	772.544678
3105.556641	711.157043
3104.833984	819.894043
3104.110352	829.950073
3103.387695	765.184387
3102.664062	785.447266
3101.940430	829.499817
3101.216797	764.769287
3100.493164	886.971924
3099.768555	846.038513
3099.044922	801.722778
3098.320312	767.612549
3097.595703	821.808105
3096.871094	784.311218
3096.146484	729.854553
3095.421875	834.938293
3094.697266	865.328186
3093.971680	749.815369
3093.247070	766.640747
3092.521484	776.676758
3091.795898	779.927185
3091.070312	810.299316
3090.344727	783.034546
3089.619141	776.114502
3088.892578	738.700134
3088.166992	836.816040
3087.440430	738.432678
3086.713867	748.458984
3085.987305	832.975464
3085.260742	744.802490
3084.534180	802.210083
3083.807617	791.912048
3083.080078	741.014221
3082.353516	788.242188
3081.625977	805.011353
3080.898438	750.756958
3080.170898	767.526794
3079.443359	821.476746
3078.714844	804.428101
3077.987305	834.696411
3077.258789	787.242981
3076.531250	760.075378
3075.802734	726.162659
3075.074219	766.553650
3074.345703	759.662170
3073.617188	752.773132
3072.887695	756.011719
3072.159180	809.865723
3071.429688	813.092712
3070.700195	799.452454
3069.970703	775.699219
3069.241211	758.698608
3068.511719	731.589966
3067.782227	758.423462
3067.051758	778.506836
3066.322266	744.670166
3065.591797	724.321472
3064.861328	707.348450
3064.130859	875.605896
3063.400391	757.598389
3062.669922	693.497559
3061.938477	683.274109
3061.208008	736.994446
3060.476562	723.402100
3059.745117	777.095581
3059.013672	763.500793
3058.282227	706.194153
3057.550781	780.034790
3056.819336	719.384277
3056.086914	756.224670
3055.355469	782.970459
3054.623047	715.632751
3053.890625	715.502869
3053.158203	762.392761
3052.425781	705.169189
3051.693359	721.827820
3050.959961	674.702576
3050.227539	677.936157
3049.494141	691.235046
3048.760742	684.399719
3048.027344	701.046875
3047.293945	767.993164
3046.560547	690.732971
3045.826172	740.894409
3045.092773	734.056091
3044.358398	727.220276
3043.624023	700.283020
3042.889648	750.406189
3042.155273	713.426208
3041.420898	740.087036
3040.686523	713.166931
3039.951172	716.384888
3039.215820	706.213745
3038.481445	686.007080
3037.746094	729.377380
3037.010742	695.793213
3036.275391	705.700317
3035.539062	605.253723
3034.803711	661.980408
3034.067383	715.343628
3033.331055	701.845093
3032.595703	728.449524
3031.859375	691.567139
3031.122070	691.441345
3030.385742	774.807800
3029.649414	681.172546
3028.912109	691.064087
3028.175781	707.627686
3027.438477	720.847961
3026.701172	717.380188
3025.963867	733.929871
3025.225586	667.087585
3024.488281	683.640320
3023.750977	686.850159
3023.012695	753.397461
3022.274414	709.931213
3021.536133	686.475159
3020.797852	673.023010
3020.059570	669.569336
3019.321289	686.100342
3018.582031	725.935181
3017.842773	632.580566
3017.104492	665.753052
3016.365234	645.662903
3015.625977	688.803467
3014.886719	682.024170
3014.146484	665.268250
3013.407227	701.730164
3012.666992	718.227966
3011.927734	714.772644
3011.187500	714.642456
3010.447266	634.752747
3009.707031	661.218750
3008.965820	641.165649
3008.225586	684.228271
3007.484375	617.685791
3006.744141	674.018066
3006.002930	700.452698
3005.261719	700.325012
3004.520508	686.923523
3003.779297	620.440979
3003.037109	660.135010
3002.295898	679.914612
3001.553711	669.842529
3000.811523	666.404968
3000.069336	616.560791
2999.327148	626.391113
2998.584961	642.845032
2997.842773	609.597534
2997.099609	645.923035
2996.357422	685.547058
2995.614258	599.330383
2994.871094	691.918274
2994.127930	622.281799
2993.384766	648.643555
2992.641602	635.290039
2991.897461	612.016724
2991.153320	678.056946
2990.410156	648.170288
2989.666016	621.600952
2988.921875	674.380066
2988.177734	670.951782
2987.432617	614.651489
2986.688477	670.706909
2985.943359	647.460876
2985.199219	620.920532
2984.454102	670.339661
2983.708984	647.106323
2982.963867	633.784363
2982.217773	716.177612
2981.472656	643.452209
2980.727539	653.232178
2979.981445	610.231750
2979.235352	715.654602
2978.489258	679.253113
2977.743164	672.535522
2976.997070	570.232361
2976.250000	695.358643
2975.503906	652.397461
2974.756836	704.987610
2974.009766	665.333984
2973.262695	714.609436
2972.515625	674.968506
2971.768555	592.546936
2971.021484	714.217712
2970.273438	625.237610
2969.526367	615.252991
2968.778320	638.167175
2968.030273	664.361877
2967.282227	644.510559
2966.534180	700.283936
2965.785156	608.116638
2965.037109	680.308777
2964.288086	749.188599
2963.540039	657.062805
2962.791016	610.956665
2962.041992	692.947754
2961.291992	738.790222
2960.542969	676.279785
2959.793945	656.462219
2959.043945	656.342102
2958.293945	636.535400
2957.543945	636.418945
2956.793945	669.101624
2956.043945	606.672302
2955.293945	655.741943
2954.542969	629.397095
2953.792969	622.726868
2953.041992	671.766602
2952.291016	681.472595
2951.540039	619.109314
2950.789062	671.397766
2950.038086	677.823914
2949.286133	684.247681
2948.535156	579.376404
2947.783203	654.542725
2947.031250	703.504578
2946.279297	703.375793
2945.527344	670.537842
2944.775391	670.415039
2944.023438	686.640869
2943.270508	634.209167
2942.517578	719.074524
2941.764648	663.388184
2941.011719	617.524109
2940.258789	676.212036
2939.505859	656.491394
2938.752930	711.885071
2937.999023	672.575500
2937.245117	701.831238
2936.492188	724.548767
2935.738281	688.521484
2934.984375	717.758179
2934.229492	724.150513
2933.475586	622.916199
2932.720703	704.320618
2931.966797	704.191467
2931.211914	648.650085
2930.457031	743.040710
2929.702148	658.187317
2928.947266	759.057068
2928.191406	677.488892
2927.436523	667.594971
2926.680664	687.008362
2925.924805	660.839417
2925.168945	663.972961
2924.413086	676.867859
2923.657227	686.504456
2922.900391	660.354675
2922.144531	715.524048
2921.387695	689.378479
2920.630859	764.029358
2919.875000	663.120789
2919.117188	636.999146
2918.360352	649.879822
2917.603516	682.248596
2916.845703	714.605469
2916.088867	772.931274
2915.331055	678.625977
2914.573242	675.255005
2913.815430	717.326721
2913.057617	671.761902
2912.298828	733.286499
2911.541016	749.372070
2910.782227	716.800049
2910.023438	723.154114
2909.264648	748.959290
2908.505859	658.055481
2907.747070	667.657837
2906.988281	745.306274
2906.228516	748.409241
2905.468750	696.443420
2904.709961	696.315491
2903.950195	709.139893
2903.190430	709.009583
2902.429688	660.325928
2901.669922	682.858643
2900.910156	753.918640
2900.149414	753.780090
2899.388672	769.814087
2898.627930	737.333435
2897.867188	769.531128
2897.106445	740.295105
2896.344727	746.623291
2895.583984	723.865295
2894.822266	739.886902
2894.060547	746.211609
2893.298828	752.533875
2892.537109	745.937195
2891.775391	791.000000
2891.013672	752.118835
2890.250977	729.388794
2889.489258	732.481445
2888.726562	758.156250
2887.963867	712.858337
2887.201172	738.527283
2886.438477	744.840271
2885.674805	776.941467
2884.912109	796.137878
2884.148438	728.316040
2883.384766	760.402466
2882.621094	753.819580
2881.857422	843.864929
2881.093750	776.083984
2880.329102	804.918213
2879.565430	788.674683
2878.800781	820.714355
2878.036133	746.551697
2877.271484	836.498718
2876.506836	797.744141
2875.742188	733.274902
2874.977539	803.881470
2874.211914	745.864624
2873.446289	787.513672
2872.681641	822.719910
2871.916016	835.421021
2871.150391	787.078613
2870.383789	748.389954
2869.618164	764.309021
2868.851562	793.065308
2868.085938	760.817200
2867.319336	821.659546
2866.552734	831.135193
2865.786133	763.605164
2865.018555	824.413269
2864.251953	801.810608
2863.484375	827.316040
2862.717773	795.102966
2861.950195	807.778259
2861.182617	794.809875
2860.415039	820.297607
2859.646484	810.535278
2858.878906	839.213806
2858.110352	778.211304
2857.342773	822.894714
2856.574219	803.534973
2855.805664	886.606140
2855.037109	822.439514
2854.267578	825.487427
2853.499023	834.932068
2852.729492	828.381287
2851.959961	818.635071
2851.191406	888.822510
2850.421875	824.726257
2849.651367	834.162170
2848.881836	859.571716
2848.112305	872.192505
2847.341797	852.866028
2846.571289	833.546631
2845.800781	874.902771
2845.030273	801.314087
2844.259766	858.620300
2843.489258	810.592224
2842.717773	842.349731
2841.947266	867.715271
2841.175781	857.986450
2840.404297	857.828003
2839.632812	873.611389
2838.861328	832.009033
2838.088867	815.919434
2837.317383	873.127502
2836.544922	895.268311
2835.772461	926.957092
2835.000000	875.828552
2834.227539	917.061951
2833.455078	830.933838
2832.682617	846.695679
2831.909180	983.385742
2831.135742	846.382812
2830.362305	897.127197
2829.589844	871.515686
2828.815430	893.615540
2828.041992	880.732178
2827.268555	864.674683
2826.494141	934.438843
2825.719727	905.666077
2824.946289	937.270569
2824.171875	886.271667
2823.396484	927.395935
2822.622070	920.873596
2821.847656	936.577515
2821.072266	895.139038
2820.296875	939.404846
2819.522461	1002.692627
2818.746094	951.747314
2817.970703	865.929871
2817.195312	957.737854
2816.419922	881.463135
2815.643555	938.362671
2814.867188	969.884644
2814.090820	972.874146
2813.314453	874.474182
2812.538086	994.688721
2811.761719	978.668579
2810.984375	915.154907
2810.208008	1006.800720
2809.430664	978.125244
2808.653320	933.636047
2807.875977	974.598877
2807.097656	968.091064
2806.320312	1043.826416
2805.542969	986.707764
2804.764648	1021.306396
2803.986328	942.083435
2803.208008	960.873535
2802.429688	1011.258545
2801.651367	979.475281
2800.872070	963.498779
2800.093750	1004.379822
2799.314453	1067.350586
2798.535156	1105.039917
2797.755859	972.255005
2796.976562	1123.567017
2796.197266	1069.715332
2795.416992	984.334351
2794.637695	898.984924
2793.857422	1088.043213
2793.077148	1002.706116
2792.296875	1018.283203
2791.516602	1052.766357
2790.735352	1049.419800
2789.955078	1071.281006
2789.173828	1071.082397
2788.393555	1077.183228
2787.612305	1017.151001
2786.831055	1029.556396
2786.048828	988.442688
2785.267578	1063.795166
2784.485352	1047.864136
2783.704102	1091.715942
2782.921875	1060.057739
2782.139648	1085.020996
2781.357422	1021.931580
2780.575195	1053.180176
2779.791992	1128.422485
2779.009766	1131.355835
2778.226562	1036.883789
2777.443359	1055.540283
2776.660156	1058.485229
2775.876953	1121.095337
2775.093750	1083.210327
2774.309570	1083.009277
2773.525391	1095.362549
2772.742188	1101.435181
2771.958008	1120.055176
2771.173828	994.374146
2770.389648	1088.276855
2769.604492	1075.532104
2768.820312	1131.763794
2768.035156	1090.805176
2767.250000	1071.799072
2766.464844	1146.800049
2765.679688	1115.259521
2764.894531	1149.506226
2764.109375	1133.634766
2763.323242	1192.913208
2762.537109	1136.343994
2761.750977	1201.859497
2760.964844	1142.180298
2760.178711	1182.640869
2759.392578	1107.346680
2758.606445	1072.738281
2757.819336	1194.489380
2757.032227	1175.509155
2756.245117	1165.913330
2755.458008	1137.569946
2754.670898	1212.349121
2753.883789	1165.263306
2753.095703	1143.182495
2752.308594	1164.829956
2751.520508	1192.713989
2750.732422	1226.830933
2749.944336	1239.087280
2749.156250	1154.602051
2748.367188	1169.987183
2747.579102	1219.679688
2746.790039	1166.433105
2746.000977	1178.689087
2745.211914	1159.763916
2744.422852	1246.825928
2743.633789	1218.545532
2742.843750	1243.246094
2742.054688	1267.937256
2741.264648	1255.242310
2740.474609	1230.095337
2739.684570	1186.276245
2738.894531	1195.394409
2738.103516	1276.094971
2737.313477	1219.844238
2736.522461	1222.728394
2735.731445	1322.042725
2734.940430	1219.162964
2734.149414	1296.674194
2733.358398	1237.362671
2732.567383	1252.674072
2731.775391	1274.195435
2730.983398	1292.601318
2730.192383	1251.974365
2729.400391	1251.741089
2728.607422	1251.507935
2727.815430	1226.435547
2727.023438	1235.520020
2726.230469	1235.289795
2725.437500	1290.916626
2724.644531	1293.778564
2723.851562	1293.537476
2723.058594	1283.992188
2722.265625	1342.669067
2721.471680	1317.616577
2720.678711	1360.766724
2719.884766	1332.620972
2719.090820	1354.062256
2718.296875	1251.577026
2717.501953	1291.609741
2716.708008	1325.433716
2715.913086	1294.224365
2715.119141	1380.661255
2714.324219	1315.407104
2713.529297	1330.634277
2712.733398	1318.010376
2711.938477	1395.098145
2711.143555	1339.168091
2710.347656	1295.627563
2709.551758	1406.683960
2708.755859	1350.782837
2707.959961	1378.344971
2707.164062	1374.997803
2706.367188	1288.240723
2705.571289	1346.686157
2704.774414	1432.903076
2703.977539	1383.234375
2703.180664	1287.279175
2702.383789	1311.730225
2701.586914	1404.060791
2700.789062	1400.713379
2699.992188	1431.298828
2699.194336	1357.012695
2698.396484	1335.174438
2697.598633	1341.091064
2696.800781	1411.735596
2696.001953	1392.981079
2695.204102	1371.152222
2694.405273	1404.783325
2693.606445	1404.520996
2692.807617	1447.371704
2692.008789	1403.996216
2691.209961	1419.125732
2690.410156	1415.782715
2689.611328	1433.981445
2688.811523	1482.939697
2688.011719	1464.206177
2687.211914	1510.064819
2686.412109	1405.235474
2685.611328	1444.939209
2684.811523	1518.439453
2684.010742	1472.057739
2683.209961	1471.782471
2682.409180	1575.956665
2681.608398	1529.590088
2680.807617	1498.595093
2680.005859	1455.330444
2679.205078	1498.034668
2678.403320	1485.477783
2677.601562	1497.474365
2676.799805	1555.486572
2675.998047	1610.409668
2675.195312	1570.239014
2674.393555	1527.017090
2673.590820	1459.285400
2672.788086	1455.947144
2671.985352	1544.547485
2671.182617	1406.378296
2670.379883	1531.715698
2669.577148	1509.989014
2668.773438	1546.453857
2667.969727	1518.608887
2667.166016	1573.425171
2666.362305	1674.129272
2665.558594	1533.056152
2664.754883	1575.600952
2663.950195	1615.070923
2663.145508	1593.360596
2662.341797	1614.466187
2661.537109	1519.392822
2660.731445	1601.635254
2659.926758	1653.286987
2659.122070	1524.650024
2658.316406	1551.857910
2657.510742	1600.435425
2656.705078	1590.974487
2655.899414	1535.720215
2655.093750	1553.747803
2654.288086	1626.704102
2653.481445	1605.039429
2652.675781	1638.297729
2651.869141	1604.437866
2651.062500	1591.938354
2650.255859	1667.867920
2649.448242	1688.895020
2648.641602	1670.290527
2647.833984	1590.744873
2647.026367	1724.507324
2646.218750	1657.166138
2645.411133	1632.489868
2644.603516	1680.905640
2643.795898	1616.654907
2642.987305	1786.814331
2642.179688	1689.090210
2641.371094	1761.801392
2640.562500	1639.780396
2639.752930	1590.805664
2638.944336	1687.823120
2638.135742	1760.479614
2637.326172	1769.269287
2636.516602	1747.661377
2635.707031	1811.149048
2634.897461	1737.890625
2634.087891	1704.149780
2633.278320	1725.089722
2632.467773	1721.729370
2631.657227	1742.658081
2630.846680	1651.268311
2630.036133	1778.421997
2629.225586	1796.293823
2628.415039	1704.945190
2627.603516	1780.453491
2626.792969	1774.053955
2625.981445	1801.008789
2625.169922	1764.293335
2624.358398	1679.097778
2623.545898	1821.206177
2622.734375	1887.517944
2621.921875	1717.530640
2621.110352	1671.779175
2620.297852	1868.286133
2619.485352	1855.825317
2618.671875	1767.697021
2617.859375	1846.048950
2617.045898	1706.517944
2616.233398	1772.750977
2615.419922	1817.786743
2614.606445	1750.916260
2613.792969	1811.056396
2612.978516	1713.983276
2612.165039	1831.531860
2611.350586	1807.013306
2610.537109	1821.779541
2609.722656	1818.416260
2608.907227	1824.114380
2608.092773	1878.122192
2607.278320	1874.750000
2606.462891	1801.956909
2605.647461	1940.436035
2604.833008	1946.105347
2604.017578	1897.472900
2603.201172	1863.938965
2602.385742	1954.053711
2601.569336	1878.312256
2600.753906	1950.303955
2599.937500	1853.494873
2599.121094	1835.066528
2598.304688	1907.025391
2597.488281	1837.387817
2596.670898	1951.480713
2595.853516	1930.036377
2595.037109	1893.548096
2594.219727	2007.565674
2593.402344	1868.760864
2592.583984	1970.705200
2591.766602	1928.219971
2590.948242	1948.909912
2590.130859	1906.444702
2589.312500	1930.137085
2588.494141	1992.896973
2587.675781	1950.447144
2586.856445	1953.084473
2586.038086	1946.708130
2585.218750	1973.373901
2584.399414	1918.947144
2583.580078	2110.744385
2582.760742	2071.321777
2581.941406	1857.835449
2581.121094	2034.531616
2580.301758	2112.153809
2579.481445	2051.762451
2578.661133	2027.383057
2577.840820	2086.971191
2577.020508	2008.630859
2576.199219	2041.223511
2575.378906	2052.825928
2574.557617	2052.438721
2573.736328	2058.042969
2572.915039	2024.708496
2572.093750	2048.283203
2571.271484	2074.842773
2570.450195	2038.530151
2569.627930	2050.116943
2568.805664	2031.776367
2567.983398	2082.252686
2567.161133	2141.683350
2566.338867	2075.485596
2565.515625	2033.233276
2564.693359	2074.702393
2563.870117	2074.310791
2563.046875	2076.907715
2562.223633	2031.698730
2561.400391	2108.983154
2560.576172	2099.625000
2559.752930	2126.103516
2558.928711	2068.976807
2558.104492	2011.871704
2557.280273	2139.821289
2556.456055	2106.594971
2555.630859	2010.732056
2554.806641	2165.453613
2553.981445	2084.526367
2553.156250	2206.377930
2552.331055	2134.416504
2551.505859	2077.384277
2550.680664	2202.147705
2549.854492	2085.537354
2549.029297	2186.421631
2548.203125	2108.574951
2547.376953	2230.260254
2546.550781	2206.021973
2545.723633	2119.285645
2544.897461	2228.995850
2544.070312	2100.632324
2543.243164	2341.197021
2542.416016	2126.606445
2541.588867	2257.047852
2540.761719	2209.050537
2539.934570	2164.043945
2539.106445	2178.494873
2538.278320	2178.083008
2537.450195	2260.856201
2536.622070	2251.517578
2535.793945	2265.940674
2534.965820	2241.758057
2534.136719	2291.801270
2533.308594	2261.686768
2532.479492	2166.297852
2531.650391	2225.227295
2530.820312	2275.235107
2529.991211	2313.360596
2529.162109	2387.054688
2528.332031	2318.414307
2527.501953	2329.832275
2526.671875	2332.354736
2525.841797	2269.689453
2525.011719	2319.621826
2524.180664	2381.382812
2523.350586	2324.666260
2522.519531	2303.500488
2521.688477	2365.229248
2520.857422	2326.305420
2520.025391	2266.682617
2519.194336	2331.341309
2518.362305	2354.563721
2517.531250	2386.649414
2516.699219	2288.620605
2515.867188	2403.483154
2515.034180	2287.753418
2514.202148	2308.006348
2513.369141	2475.982910
2512.537109	2398.707764
2511.704102	2463.230469
2510.871094	2323.974854
2510.037109	2494.773193
2509.204102	2461.830078
2508.370117	2366.922607
2507.537109	2395.980957
2506.703125	2371.925537
2505.869141	2504.207764
2505.035156	2518.478027
2504.200195	2411.855225
2503.366211	2564.689697
2502.531250	2599.571533
2501.696289	2498.887207
2500.861328	2460.112061
2500.026367	2471.428223
2499.191406	2482.739746
2498.355469	2597.106689
2497.520508	2411.141602
2496.684570	2584.347412
2495.848633	2539.713867
2495.012695	2489.212158
2494.175781	2426.962402
2493.339844	2594.151123
2492.502930	2599.540039
2491.666992	2434.401123
2490.830078	2445.697021
2489.992188	2521.646240
2489.155273	2612.258789
2488.318359	2647.017090
2487.480469	2543.708740
2486.642578	2587.276855
2485.804688	2554.487549
2484.966797	2618.586182
2484.128906	2582.867920
2483.291016	2632.264160
2482.452148	2561.349121
2481.613281	2722.199707
2480.774414	2707.018311
2479.935547	2562.821777
2479.096680	2620.969482
2478.257812	2638.058350
2477.417969	2702.030762
2476.579102	2651.706055
2475.739258	2668.779297
2474.899414	2677.058838
2474.058594	2667.764648
2473.218750	2778.515381
2472.377930	2678.459717
2471.538086	2701.364258
2470.697266	2677.441162
2469.856445	2723.741699
2469.015625	2682.273193
2468.173828	2649.593506
2467.333008	2809.906250
2466.491211	2788.908203
2465.649414	2779.609131
2464.807617	2776.158203
2463.965820	2810.690674
2463.124023	2664.097900
2462.281250	2759.970947
2461.439453	2812.006592
2460.596680	2718.047852
2459.753906	2843.044922
2458.911133	2833.748535
2458.067383	2707.742676
2457.224609	2727.648193
2456.380859	2773.796387
2455.537109	2852.004883
2454.693359	2752.331299
2453.849609	2786.787842
2453.005859	2786.257324
2452.161133	2744.931396
2451.317383	2700.708008
2450.472656	2761.363037
2449.627930	2886.064941
2448.783203	2795.251953
2447.937500	2832.564697
2447.092773	2896.058594
2446.247070	2776.194580
2445.402344	2857.131592
2444.556641	2874.041016
2443.709961	2829.867432
2442.864258	2782.802734
2442.018555	2852.047363
2441.171875	2993.933594
2440.325195	2970.113525
2439.478516	2838.794434
2438.631836	2820.822754
2437.785156	3011.983154
2436.937500	2784.899902
2436.090820	2842.437012
2435.243164	2812.866455
2434.395508	2977.761230
2433.547852	2869.828857
2432.700195	2921.502930
2431.851562	3071.779053
2431.003906	2984.190430
2430.155273	2957.525391
2429.306641	2901.880615
2428.458008	3028.857910
2427.609375	2912.364990
2426.759766	3091.443359
2425.911133	2922.840820
2425.061523	3093.159912
2424.211914	3144.691406
2423.362305	3028.286865
2422.512695	2966.923096
2421.662109	2934.522705
2420.811523	2974.470947
2419.961914	3008.617920
2419.111328	2964.658203
2418.260742	2987.226562
2417.409180	2983.764893
2416.558594	3038.118408
2415.707031	3095.341064
2414.856445	3068.743652
2414.004883	3024.821777
2413.153320	3050.240479
2412.300781	3081.425049
2411.449219	3176.120117
2410.596680	3120.663574
2409.745117	3027.706299
2408.892578	3053.099365
2408.040039	3118.875000
2407.186523	3187.510010
2406.333984	3117.683105
2405.480469	3177.641113
2404.626953	3021.353516
2403.774414	3046.717773
2402.919922	3083.599609
2402.066406	3131.992432
2401.212891	3145.797363
2400.358398	3153.836670
2399.503906	3228.104980
2398.649414	3227.487549
2397.794922	3189.448975
2396.940430	3105.376709
2396.085938	3101.905273
2395.230469	3150.219482
2394.375000	3224.402344
2393.519531	3157.641602
2392.664062	3208.792236
2391.808594	3294.419678
2390.952148	3224.809570
2390.096680	3183.961914
2389.240234	3269.544434
2388.383789	3254.556152
2387.527344	3118.950928
2386.670898	3284.895996
2385.813477	3295.750488
2384.957031	3088.457031
2384.099609	3303.098145
2383.242188	3334.027100
2382.384766	3258.803467
2381.526367	3381.508301
2380.668945	3162.925781
2379.810547	3239.729492
2378.953125	3244.842041
2378.094727	3235.622559
2377.236328	3352.483154
2376.376953	3225.788818
2375.518555	3219.442139
2374.659180	3353.420410
2373.799805	3312.693359
2372.940430	3274.844482
2372.081055	3299.975586
2371.221680	3382.327637
2370.361328	3227.186279
2369.501953	3366.729004
2368.641602	3334.625000
2367.781250	3428.343750
2366.920898	3556.332031
2366.059570	3367.006348
2365.199219	3400.653076
2364.337891	3394.286865
2363.476562	3350.786865
2362.615234	3375.848877
2361.753906	3343.790771
2360.892578	3365.989258
2360.030273	3368.197998
2359.168945	3373.259521
2358.306641	3398.292236
2357.444336	3394.787354
2356.582031	3431.214844
2355.718750	3553.178223
2354.856445	3321.555664
2353.993164	3546.113525
2353.129883	3388.681641
2352.266602	3493.461914
2351.403320	3472.848877
2350.540039	3648.782227
2349.675781	3542.711670
2348.811523	3502.169434
2347.947266	3524.270996
2347.083008	3492.286133
2346.218750	3562.756836
2345.354492	3431.197754
2344.489258	3655.259033
2343.625000	3532.264404
2342.759766	3585.611816
2341.894531	3468.363281
2341.028320	3697.929443
2340.163086	3575.020264
2339.296875	3551.603271
2338.431641	3593.531982
2337.565430	3652.485352
2336.699219	3546.716553
2335.832031	3514.804932
2334.965820	3551.030762
2334.098633	3626.974365
2333.231445	3674.513916
2332.364258	3636.927734
2331.497070	3783.719971
2330.629883	3570.305420
2329.762695	3680.195068
2328.894531	3614.288330
2328.026367	3658.940430
2327.158203	3661.070557
2326.290039	3731.193848
2325.421875	3685.155273
2324.552734	3599.486084
2323.684570	3607.288086
2322.815430	3617.917969
2321.946289	3622.882568
2321.077148	3602.376709
2320.207031	3714.854980
2319.337891	3674.537842
2318.467773	3594.641113
2317.597656	3658.985352
2316.727539	3745.921387
2315.857422	3779.119385
2314.987305	3905.562744
2314.116211	3780.489990
2313.245117	3740.212891
2312.374023	3762.088135
2311.502930	3721.829834
2310.631836	3817.105469
2309.760742	3728.864746
2308.888672	3750.724365
2308.016602	3772.575439
2307.144531	3723.889404
2306.272461	3782.404541
2305.400391	3733.735107
2304.528320	3766.849854
2303.655273	3946.537109
2302.782227	3931.684570
2301.909180	3826.666016
2301.036133	3921.717529
2300.163086	3802.656982
2299.289062	3889.227295
2298.416016	3829.348145
2297.541992	4045.376953
2296.667969	3886.978760
2295.793945	3905.927979
2294.919922	3933.310059
2294.044922	3963.494629
2293.169922	3914.918701
2292.294922	3956.342285
2291.419922	3955.579346
2290.544922	3935.140625
2289.669922	3987.776855
2288.793945	4046.011963
2287.918945	3826.114746
2287.042969	3864.697754
2286.166992	3959.427490
2285.290039	3891.282227
2284.414062	3887.724121
2283.537109	4058.169189
2282.661133	3914.283203
2281.784180	4135.154297
2280.907227	3881.918945
2280.029297	3996.146484
2279.152344	4003.786377
2278.274414	3983.390869
2277.397461	4122.756348
2276.519531	4007.072266
2275.640625	4185.601074
2274.762695	4002.723633
2273.884766	4105.570312
2273.005859	4219.576660
2272.126953	4095.585938
2271.248047	4083.599365
2270.369141	4191.946777
2269.490234	4076.426025
2268.610352	4084.030273
2267.730469	4147.566406
2266.850586	4124.395020
2265.970703	4140.372070
2265.090820	4125.596680
2264.210938	4063.318359
2263.330078	4160.324219
2262.449219	4318.749512
2261.569336	4133.579590
2260.687500	4146.742676
2259.806641	4193.402832
2258.925781	4234.461914
2258.043945	4373.183105
2257.162109	4101.682129
2256.280273	4187.370605
2255.398438	4273.025391
2254.516602	4180.173340
2253.633789	4257.431641
2252.751953	4223.157715
2251.869141	4286.441895
2250.986328	4257.748047
2250.103516	4404.579102
2249.219727	4322.950195
2248.336914	4299.834473
2247.453125	4454.924805
2246.569336	4406.738281
2245.685547	4258.373047
2244.801758	4282.593262
2243.916992	4345.754395
2243.033203	4425.580078
2242.148438	4344.071777
2241.263672	4379.377930
2240.378906	4461.930176
2239.494141	4419.374023
2238.608398	4382.392090
2237.723633	4381.543457
2236.837891	4361.249512
2235.952148	4521.489746
2235.066406	4484.515625
2234.179688	4428.122070
2233.293945	4538.292480
2232.407227	4470.809082
2231.520508	4500.463867
2230.633789	4527.332520
2229.747070	4537.549316
2228.859375	4489.528809
2227.972656	4577.377930
2227.084961	4537.683594
2226.197266	4542.346680
2225.309570	4549.778809
2224.421875	4490.719727
2223.533203	4379.056641
2222.645508	4447.439453
2221.756836	4490.876465
2220.868164	4531.528320
2219.979492	4594.305664
2219.089844	4632.154297
2218.201172	4656.154785
2217.311523	4630.357422
2216.421875	4623.927734
2215.532227	4606.440918
2214.642578	4564.080566
2213.751953	4615.708984
2212.862305	4694.950684
2211.971680	4561.424316
2211.081055	4665.505859
2210.190430	4609.365234
2209.299805	4688.545898
2208.408203	4604.815430
2207.517578	4628.762695
2206.625977	4713.411621
2205.734375	4745.605469
2204.842773	4664.686523
2203.950195	4663.780762
2203.058594	4668.389648
2202.166016	4832.898926
2201.273438	4922.921387
2200.380859	4908.185547
2199.488281	4797.019531
2198.594727	4735.481934
2197.702148	4756.596191
2196.808594	4860.312988
2195.915039	4919.938965
2195.021484	4861.177246
2194.127930	4678.592773
2193.233398	4897.810059
2192.338867	4976.638184
2191.445312	4843.646484
2190.550781	4955.453613
2189.655273	4907.750000
2188.760742	4950.778320
2187.865234	4936.073730
2186.970703	4712.539062
2186.075195	4975.363770
2185.179688	4916.713867
2184.283203	4855.340820
2183.387695	5008.155273
2182.491211	5086.791016
2181.595703	5091.290527
2180.699219	4931.142578
2179.801758	5212.770020
2178.905273	5181.582520
2178.008789	4994.084473
2177.111328	4993.112793
2176.213867	4989.399414
2175.316406	5136.437012
2174.418945	5116.254395
2173.520508	5153.616211
2172.623047	5248.488281
2171.724609	5173.520020
2170.826172	5246.444824
2169.927734	5105.800781
2169.028320	5200.607422
2168.129883	5155.808594
2167.230469	5340.858887
2166.331055	5306.991699
2165.431641	5150.061523
2164.532227	5351.411133
2163.632812	5372.240234
2162.732422	5201.720703
2161.833008	5465.798828
2160.932617	5434.677734
2160.031250	5422.691406
2159.130859	5342.426758
2158.230469	5401.462402
2157.329102	5479.586426
2156.427734	5421.194824
2155.526367	5368.283691
2154.625000	5460.011230
2153.723633	5439.849609
2152.821289	5501.523438
2151.918945	5503.177734
2151.017578	5469.386230
2150.114258	5550.099121
2149.211914	5644.407715
2148.309570	5583.358398
2147.406250	5571.372070
2146.502930	5657.448242
2145.599609	5514.731934
2144.696289	5478.259766
2143.792969	5515.302246
2142.888672	5663.921387
2141.985352	5641.046387
2141.081055	5735.168945
2140.176758	5761.250977
2139.271484	5675.818848
2138.367188	5794.350586
2137.461914	5687.195801
2136.557617	5634.443359
2135.652344	5633.343262
2134.746094	5844.166016
2133.840820	5924.517090
2132.935547	5907.064941
2132.029297	5881.473145
2131.123047	5880.324707
2130.216797	5778.746582
2129.310547	5834.607422
2128.403320	5893.158691
2127.497070	5805.200684
2126.589844	6137.664551
2125.682617	5968.343262
2124.775391	5983.443359
2123.867188	6242.491211
2122.959961	6168.099609
2122.051758	5988.064941
2121.143555	6320.101562
2120.235352	6186.150879
2119.327148	6084.748047
2118.418945	6143.121582
2117.509766	6139.213379
2116.600586	6146.132324
2115.691406	6296.456543
2114.782227	6338.509766
2113.873047	6277.765625
2112.962891	6530.735840
2112.053711	6269.902344
2111.143555	6460.601562
2110.233398	6524.201660
2109.322266	6533.733887
2108.412109	6324.432617
2107.500977	6479.856934
2106.589844	6486.690430
2105.679688	6504.321289
2104.767578	6527.343262
2103.856445	6561.152344
2102.944336	6540.979004
2102.033203	6685.384766
2101.121094	6727.233887
2100.208984	6752.885254
2099.296875	6667.977539
2098.383789	6820.331543
2097.471680	6878.291504
2096.558594	6701.787109
2095.645508	6975.283203
2094.732422	6788.053223
2093.818359	6875.597656
2092.905273	6928.103027
2091.991211	7107.115723
2091.077148	7054.583496
2090.163086	6993.998535
2089.249023	7051.819336
2088.333984	7271.015625
2087.419922	7336.827148
2086.504883	7131.030762
2085.589844	7245.234375
2084.674805	7405.086426
2083.758789	7261.205078
2082.843750	7214.105957
2081.927734	7223.436523
2081.011719	7391.223145
2080.095703	7346.810059
2079.179688	7476.920410
2078.262695	7472.769531
2077.345703	7479.354980
2076.429688	7367.879395
2075.512695	7363.751465
2074.594727	7638.561035
2073.677734	7602.202637
2072.759766	7801.788086
2071.842773	7636.746582
2070.924805	7801.406250
2070.006836	7917.770996
2069.087891	8004.621582
2068.169922	7887.879395
2067.250977	7851.518555
2066.332031	8104.325195
2065.413086	8030.459961
2064.494141	7911.126465
2063.574219	8027.307129
2062.655273	8060.508789
2061.735352	8120.444824
2060.815430	8335.459961
2059.895508	8304.412109
2058.975586	8340.205078
2058.054688	8170.191895
2057.133789	8470.533203
2056.212891	8183.011230
2055.291992	8590.073242
2054.371094	8559.009766
2053.450195	8565.337891
2052.528320	8510.264648
2051.606445	8537.951172
2050.684570	8704.382812
2049.762695	8683.997070
2048.839844	8554.255859
2047.917969	8896.597656
2046.995117	8905.513672
2046.072266	8941.083984
2045.149414	8920.668945
2044.226562	9057.481445
2043.302734	9167.597656
2042.379883	9160.467773
2041.456055	9057.464844
2040.532227	9433.780273
2039.607422	9365.371094
2038.683594	9520.563477
2037.758789	9476.113281
2036.833984	9753.607422
2035.909180	9586.765625
2034.984375	9574.241211
2034.059570	9521.835938
2033.133789	9682.128906
2032.208984	9680.222656
2031.283203	9920.142578
2030.357422	9926.160156
2029.430664	9985.302734
2028.504883	10121.440430
2027.578125	10238.937500
2026.651367	10340.458984
2025.724609	10168.548828
2024.797852	10553.994141
2023.871094	10461.706055
2022.943359	10640.029297
2022.015625	10484.106445
2021.087891	10564.243164
2020.160156	10827.276367
2019.232422	10782.732422
2018.303711	11080.069336
2017.375000	11239.509766
2016.446289	11120.736328
2015.517578	11383.398438
2014.588867	11145.481445
2013.660156	11400.090820
2012.730469	11339.610352
2011.800781	11408.829102
2010.871094	11753.195312
2009.941406	11518.083008
2009.010742	11708.887695
2008.081055	11928.705078
2007.150391	12037.393555
2006.219727	11839.414062
2005.289062	12220.284180
2004.357422	12268.077148
2003.426758	12112.434570
2002.495117	12350.397461
2001.563477	12445.666992
2000.631836	12535.618164
1999.700195	12765.434570
1998.767578	12623.041016
1997.835938	13005.789062
1996.903320	12863.402344
1995.970703	13293.426758
1995.037109	13087.749023
1994.104492	13153.715820
1993.170898	13451.625000
1992.238281	13659.809570
1991.304688	13778.321289
1990.370117	13628.070312
1989.436523	13759.709961
1988.501953	13991.367188
1987.568359	14128.147461
1986.633789	14059.546875
1985.699219	14175.203125
1984.763672	14375.015625
1983.829102	14424.791992
1982.893555	14527.154297
1981.958008	14526.913086
1981.022461	14786.968750
1980.086914	14912.854492
1979.150391	15041.318359
1978.214844	14998.929688
1977.278320	15206.138672
1976.341797	15360.732422
1975.405273	15467.994141
1974.467773	15609.344727
1973.531250	15637.759766
1972.593750	15991.611328
1971.656250	15810.011719
1970.718750	16019.392578
1969.780273	16215.574219
1968.842773	16180.896484
1967.904297	16002.021484
1966.965820	16439.263672
1966.027344	16320.689453
1965.088867	16569.021484
1964.149414	16974.451172
1963.210938	16845.359375
1962.271484	16980.826172
1961.332031	16964.373047
1960.391602	17293.482422
1959.452148	17470.654297
1958.511719	17456.728516
1957.571289	17586.703125
1956.630859	17784.634766
1955.690430	17872.648438
1954.750000	17897.871094
1953.808594	18223.716797
1952.867188	18139.083984
1951.925781	18307.960938
1950.984375	18602.177734
1950.042969	18473.109375
1949.100586	18519.070312
1948.159180	18836.568359
1947.216797	18663.148438
1946.274414	19254.546875
1945.331055	19013.261719
1944.388672	19531.302734
1943.445312	19386.570312
1942.501953	19682.648438
1941.558594	19733.503906
1940.615234	19755.662109
1939.670898	19973.294922
1938.727539	20026.664062
1937.783203	20027.904297
1936.838867	20271.398438
1935.894531	20296.027344
1934.949219	20565.408203
1934.004883	20740.960938
1933.059570	20773.287109
1932.114258	21011.181641
1931.168945	20837.896484
1930.222656	20953.421875
1929.277344	21167.728516
1928.331055	21218.134766
1927.384766	21450.500000
1926.438477	21620.390625
1925.491211	21514.750000
1924.544922	21557.248047
1923.597656	21659.472656
1922.650391	22070.718750
1921.703125	22126.060547
1920.755859	22010.033203
1919.807617	22054.980469
1918.860352	22208.900391
1917.912109	22326.435547
1916.963867	22386.853516
1916.014648	22545.800781
1915.066406	22956.208984
1914.117188	22915.353516
1913.168945	22840.816406
1912.218750	22971.037109
1911.269531	23225.570312
1910.320312	22775.394531
1909.370117	23317.347656
1908.419922	23095.201172
1907.469727	23515.195312
1906.519531	23352.626953
1905.569336	23174.595703
1904.618164	23731.451172
1903.666992	23693.103516
1902.715820	23892.712891
1901.764648	24027.597656
1900.813477	23890.968750
1899.861328	24276.523438
1898.910156	24000.343750
1897.958008	24013.656250
1897.005859	24603.029297
1896.052734	24450.917969
1895.100586	24662.962891
1894.147461	24686.455078
1893.194336	24619.593750
1892.241211	24403.076172
1891.288086	24640.757812
1890.333984	24643.591797
1889.379883	24651.582031
1888.426758	24834.916016
1887.471680	24886.691406
1886.517578	24662.638672
1885.563477	25021.101562
1884.608398	25018.695312
1883.653320	25273.896484
1882.698242	25075.697266
1881.743164	25243.230469
1880.787109	25142.945312
1879.832031	25539.484375
1878.875977	25230.722656
1877.919922	25266.865234
1876.963867	25434.187500
1876.006836	25321.095703
1875.050781	25897.201172
1874.093750	25544.962891
1873.136719	25886.880859
1872.179688	25455.113281
1871.221680	25850.867188
1870.264648	26058.933594
1869.306641	25617.113281
1868.348633	25707.017578
1867.390625	25866.203125
1866.431641	25917.515625
1865.473633	25778.896484
1864.514648	26091.919922
1863.555664	26053.367188
1862.596680	26155.890625
1861.637695	26050.666016
1860.677734	26142.894531
1859.717773	26219.703125
1858.757812	26070.957031
1857.797852	26550.019531
1856.837891	25847.929688
1855.876953	26060.474609
1854.916992	26139.777344
1853.956055	26254.890625
1852.995117	26467.222656
1852.033203	26226.494141
1851.072266	26374.779297
1850.110352	26338.816406
1849.148438	26336.115234
1848.186523	26289.941406
1847.224609	26392.070312
1846.261719	26481.375000
1845.299805	26545.087891
1844.336914	26907.718750
1843.374023	26365.880859
1842.410156	26340.181641
1841.447266	26385.990234
1840.483398	26590.068359
1839.519531	26457.128906
1838.555664	26485.017578
1837.591797	26385.318359
1836.626953	26288.208984
1835.663086	26288.054688
1834.698242	26757.099609
1833.733398	26305.589844
1832.768555	26769.341797
1831.802734	26343.494141
1830.837891	26613.406250
1829.872070	26600.441406
1828.906250	27000.083984
1827.939453	26515.957031
1826.973633	26976.556641
1826.006836	26512.986328
1825.040039	26561.125000
1824.073242	26527.822266
1823.106445	26820.150391
1822.139648	26451.082031
1821.171875	26684.818359
1820.204102	26463.376953
1819.236328	26968.992188
1818.268555	26645.927734
1817.300781	26660.919922
1816.332031	26510.785156
1815.363281	26365.787109
1814.394531	26855.673828
1813.425781	26664.964844
1812.457031	26629.166016
1811.487305	26859.845703
1810.517578	26778.349609
1809.547852	26762.837891
1808.578125	26453.126953
1807.607422	26544.187500
1806.637695	26980.000000
1805.666992	26553.830078
1804.696289	26642.275391
1803.725586	26707.880859
1802.753906	26750.660156
1801.783203	26555.347656
1800.811523	26777.921875
1799.839844	26833.314453
1798.868164	26769.718750
1797.895508	26903.539062
1796.923828	26531.273438
1795.951172	26743.503906
1794.978516	26629.388672
1794.005859	26859.210938
1793.032227	26990.343750
1792.059570	27101.201172
1791.085938	26934.031250
1790.112305	26549.636719
1789.138672	26951.013672
1788.164062	26980.964844
1787.190430	26829.095703
1786.215820	26970.138672
1785.241211	26782.994141
1784.266602	26982.027344
1783.291016	26797.474609
1782.316406	27087.236328
1781.340820	26973.351562
1780.365234	26849.423828
1779.389648	27212.105469
1778.413086	27488.941406
1777.437500	27455.701172
1776.460938	27326.732422
1775.484375	27401.853516
1774.507812	27388.794922
1773.530273	26919.980469
1772.553711	27133.595703
1771.576172	27211.205078
1770.598633	27102.562500
1769.621094	27922.359375
1768.642578	27250.148438
1767.665039	27657.128906
1766.686523	27455.443359
1765.708008	27922.548828
1764.728516	27484.623047
1763.750000	27878.658203
1762.770508	27878.078125
1761.791992	27895.082031
1760.812500	27789.015625
1759.832031	28202.753906
1758.852539	28337.666016
1757.872070	27978.070312
1756.891602	27972.443359
1755.911133	28147.458984
1754.930664	28222.066406
1753.950195	28146.167969
1752.968750	28353.634766
1751.987305	28332.888672
1751.005859	28282.074219
1750.024414	28451.794922
1749.041992	28588.875000
1748.060547	28738.423828
1747.078125	28940.503906
1746.095703	28609.175781
1745.113281	28793.671875
1744.129883	29263.419922
1743.147461	29002.287109
1742.164062	29336.701172
1741.180664	29285.769531
1740.196289	29049.794922
1739.212891	29604.019531
1738.228516	29148.087891
1737.244141	29069.736328
1736.259766	29098.865234
1735.275391	29565.185547
1734.290039	29604.191406
1733.305664	29493.339844
1732.320312	29529.841797
1731.334961	29676.166016
1730.348633	29710.119141
1729.363281	29731.580078
1728.376953	30247.001953
1727.390625	30093.740234
1726.404297	30189.919922
1725.417969	30355.871094
1724.430664	30347.257812
1723.444336	30418.400391
1722.457031	30614.101562
1721.468750	30834.634766
1720.481445	31254.339844
1719.494141	30690.214844
1718.505859	30502.269531
1717.517578	30901.869141
1716.529297	31144.511719
1715.540039	31225.318359
1714.551758	31338.431641
1713.562500	30809.781250
1712.573242	31467.529297
1711.583984	31640.189453
1710.593750	31526.916016
1709.604492	31495.701172
1708.614258	31785.029297
1707.624023	32002.195312
1706.633789	31811.937500
1705.642578	32225.183594
1704.652344	32000.193359
1703.661133	32214.652344
1702.669922	32585.373047
1701.678711	32449.765625
1700.686523	32272.041016
1699.695312	33002.156250
1698.703125	32705.357422
1697.710938	32892.132812
1696.717773	32964.804688
1695.725586	33225.792969
1694.732422	33058.027344
1693.739258	33425.410156
1692.746094	33418.652344
1691.752930	33557.996094
1690.759766	33231.843750
1689.765625	33811.757812
1688.771484	34205.828125
1687.777344	33765.921875
1686.783203	34033.679688
1685.788086	34308.746094
1684.792969	34113.878906
1683.797852	34322.062500
1682.802734	34231.082031
1681.807617	34510.820312
1680.811523	34595.257812
1679.816406	34514.152344
1678.820312	34699.808594
1677.824219	34771.800781
1676.827148	35283.199219
1675.831055	35029.238281
1674.833984	34886.421875
1673.836914	35106.347656
1672.839844	35464.316406
1671.841797	35550.855469
1670.844727	35864.203125
1669.846680	35945.691406
1668.848633	35938.414062
1667.849609	35726.601562
1666.851562	35832.699219
1665.852539	36404.304688
1664.853516	36318.125000
1663.854492	36239.363281
1662.855469	36613.593750
1661.856445	36581.562500
1660.856445	36571.691406
1659.856445	36601.183594
1658.856445	36888.937500
1657.856445	37009.343750
1656.855469	36783.011719
1655.854492	37129.546875
1654.854492	36974.554688
1653.852539	37055.519531
1652.851562	37367.386719
1651.849609	37573.507812
1650.848633	37529.050781
1649.846680	37656.480469
1648.844727	38014.605469
1647.841797	37810.554688
1646.839844	38058.078125
1645.836914	37569.515625
1644.833984	38076.976562
1643.831055	38432.191406
1642.827148	37951.199219
1641.823242	38242.554688
1640.820312	38212.738281
1639.816406	38175.578125
1638.811523	38478.957031
1637.807617	38711.175781
1636.802734	38830.656250
1635.797852	39011.292969
1634.792969	38836.921875
1633.788086	39142.292969
1632.782227	39139.238281
1631.777344	39407.722656
1630.771484	39436.410156
1629.764648	39455.296875
1628.758789	39398.386719
1627.752930	39705.703125
1626.746094	39323.730469
1625.739258	39770.203125
1624.732422	39395.695312
1623.724609	40135.046875
1622.717773	40053.636719
1621.709961	40116.296875
1620.702148	40230.187500
1619.694336	40041.421875
1618.685547	40150.398438
1617.676758	40639.867188
1616.668945	40631.605469
1615.659180	40494.109375
1614.650391	40724.789062
1613.641602	40865.187500
1612.631836	40990.906250
1611.622070	40858.312500
1610.612305	40947.437500
1609.602539	41465.156250
1608.591797	41198.621094
1607.581055	41231.621094
1606.570312	41391.175781
1605.559570	41499.554688
1604.548828	41615.191406
1603.537109	41536.179688
1602.525391	41722.281250
1601.513672	41550.882812
1600.501953	41916.792969
1599.490234	41429.460938
1598.477539	42074.683594
1597.464844	42350.363281
1596.452148	42334.453125
1595.439453	42403.542969
1594.425781	42190.957031
1593.412109	42199.355469
1592.398438	42219.886719
1591.384766	42412.683594
1590.371094	42595.699219
1589.356445	42642.808594
1588.342773	43043.945312
1587.328125	42654.527344
1586.312500	42640.984375
1585.297852	43616.246094
1584.282227	43362.632812
1583.267578	43269.003906
1582.251953	42981.648438
1581.235352	43597.648438
1580.219727	43753.390625
1579.203125	43846.132812
1578.186523	43621.808594
1577.169922	43598.394531
1576.153320	43870.117188
1575.135742	43737.820312
1574.119141	44367.277344
1573.101562	43952.070312
1572.083008	43703.808594
1571.065430	44402.960938
1570.046875	44084.636719
1569.029297	44343.777344
1568.010742	44605.226562
1566.991211	44337.753906
1565.972656	44763.253906
1564.953125	44867.558594
1563.933594	44730.500000
1562.914062	44907.144531
1561.894531	45472.078125
1560.875000	45117.921875
1559.854492	45549.957031
1558.833984	45485.210938
1557.813477	45430.125000
1556.791992	45770.257812
1555.771484	45763.316406
1554.750000	45768.421875
1553.728516	45417.101562
1552.707031	45624.519531
1551.684570	46159.238281
1550.663086	46436.210938
1549.640625	46539.816406
1548.618164	46080.421875
1547.594727	46246.589844
1546.572266	46780.625000
1545.548828	46472.925781
1544.525391	47054.765625
1543.501953	47158.101562
1542.478516	47191.710938
1541.454102	46994.675781
1540.429688	47390.980469
1539.405273	46992.265625
1538.380859	47193.933594
1537.356445	47541.933594
1536.331055	47594.605469
1535.305664	47510.488281
1534.280273	47608.718750
1533.254883	47980.324219
1532.228516	47960.917969
1531.203125	47754.511719
1530.176758	48329.593750
1529.150391	48504.226562
1528.123047	48285.851562
1527.096680	48625.703125
1526.069336	48381.042969
1525.041992	48605.796875
1524.014648	48873.546875
1522.986328	48619.402344
1521.958008	48741.058594
1520.930664	48625.804688
1519.901367	49256.914062
1518.873047	48933.531250
1517.844727	49236.734375
1516.815430	49489.609375
1515.786133	49350.406250
1514.756836	49223.203125
1513.726562	49712.441406
1512.697266	49785.855469
1511.666992	50000.132812
1510.636719	49889.605469
1509.606445	50571.648438
1508.575195	50227.152344
1507.544922	50424.449219
1506.513672	50509.539062
1505.481445	50735.312500
1504.450195	50901.378906
1503.418945	50864.710938
1502.386719	51266.664062
1501.354492	50922.496094
1500.322266	51233.718750
1499.289062	51342.320312
1498.256836	51403.242188
1497.223633	51778.460938
1496.190430	51870.210938
1495.156250	51771.496094
1494.123047	51641.878906
1493.088867	52380.765625
1492.054688	51965.613281
1491.020508	52290.292969
1489.986328	52781.285156
1488.951172	52173.726562
1487.916016	52800.019531
1486.880859	53228.808594
1485.845703	52823.480469
1484.810547	53192.695312
1483.774414	53193.644531
1482.738281	53619.617188
1481.702148	53734.421875
1480.666016	53732.875000
1479.628906	53994.726562
1478.591797	53765.363281
1477.554688	53936.960938
1476.517578	54457.093750
1475.480469	55128.757812
1474.442383	55316.554688
1473.404297	55042.105469
1472.366211	55175.335938
1471.328125	55398.531250
1470.289062	55640.578125
1469.250000	55823.324219
1468.210938	56280.632812
1467.171875	56207.511719
1466.132812	56683.480469
1465.092773	56496.726562
1464.052734	57052.863281
1463.012695	57095.527344
1461.972656	57178.367188
1460.932617	57469.222656
1459.891602	57755.226562
1458.850586	58206.535156
1457.809570	58742.714844
1456.768555	58477.859375
1455.726562	59384.554688
1454.684570	59622.628906
1453.642578	59636.324219
1452.600586	59704.296875
1451.557617	60156.890625
1450.515625	60573.902344
1449.472656	60804.390625
1448.429688	60796.585938
1447.385742	61364.105469
1446.342773	61304.316406
1445.298828	62168.460938
1444.254883	62344.167969
1443.210938	62578.699219
1442.166016	63034.542969
1441.122070	62960.324219
1440.077148	63173.378906
1439.032227	63600.558594
1437.986328	64422.949219
1436.941406	64614.382812
1435.895508	64765.742188
1434.849609	64665.363281
1433.803711	65761.976562
1432.756836	65550.921875
1431.710938	66023.984375
1430.664062	66127.875000
1429.617188	66292.804688
1428.569336	66744.265625
1427.522461	67273.046875
1426.474609	67463.460938
1425.426758	67818.125000
1424.378906	67721.984375
1423.331055	68923.617188
1422.282227	69439.648438
1421.233398	69183.703125
1420.184570	69408.640625
1419.135742	69542.039062
1418.085938	69630.828125
1417.036133	70164.914062
1415.986328	70471.460938
1414.936523	70700.570312
1413.886719	70938.945312
1412.835938	71076.523438
1411.785156	71406.031250
1410.734375	71700.281250
1409.683594	71598.875000
1408.631836	72351.593750
1407.581055	72076.960938
1406.529297	72473.734375
1405.476562	72758.085938
1404.424805	73000.234375
1403.372070	72898.664062
1402.319336	73823.093750
1401.266602	73363.882812
1400.213867	74432.664062
1399.161133	73838.046875
1398.107422	74733.484375
1397.053711	74715.695312
1396.000000	75008.351562
1394.945312	74796.812500
1393.890625	74914.335938
1392.836914	75204.429688
1391.782227	75597.015625
1390.726562	75669.984375
1389.671875	75617.031250
1388.616211	75286.726562
1387.560547	76282.500000
1386.504883	76669.773438
1385.448242	76500.171875
1384.392578	76509.953125
1383.335938	76161.164062
1382.279297	76778.585938
1381.221680	76285.570312
1380.165039	76779.375000
1379.107422	76854.210938
1378.049805	77017.398438
1376.992188	77222.367188
1375.933594	77322.625000
1374.875977	76881.226562
1373.817383	77058.195312
1372.757812	76946.968750
1371.699219	76573.273438
1370.640625	77082.312500
1369.581055	76318.625000
1368.521484	76493.179688
1367.460938	76667.664062
1366.401367	76895.445312
1365.340820	76174.171875
1364.280273	76388.031250
1363.219727	75715.851562
1362.159180	75769.718750
1361.097656	76370.671875
1360.036133	76099.875000
1358.974609	75502.453125
1357.913086	75155.492188
1356.851562	74843.414062
1355.789062	74575.460938
1354.726562	74254.359375
1353.664062	73824.585938
1352.600586	73968.968750
1351.538086	72942.421875
1350.474609	72534.000000
1349.411133	72572.148438
1348.346680	71967.398438
1347.283203	71446.125000
1346.218750	70952.804688
1345.154297	70115.343750
1344.089844	70419.648438
1343.024414	69494.843750
1341.959961	68956.132812
1340.894531	68008.914062
1339.829102	67535.367188
1338.762695	67325.148438
1337.697266	67142.703125
1336.630859	66268.156250
1335.564453	65686.929688
1334.498047	65117.476562
1333.430664	63999.472656
1332.363281	63156.265625
1331.296875	62656.820312
1330.228516	62238.234375
1329.161133	61720.750000
1328.092773	60763.531250
1327.025391	60667.992188
1325.956055	59835.714844
1324.887695	58815.015625
1323.819336	58133.058594
1322.750000	57354.734375
1321.680664	56567.531250
1320.611328	56256.761719
1319.541016	55589.687500
1318.471680	54676.878906
1317.401367	53879.382812
1316.331055	53318.921875
1315.259766	52584.066406
1314.189453	51755.332031
1313.118164	51055.550781
1312.046875	50539.757812
1310.974609	49682.113281
1309.903320	48772.027344
1308.831055	48518.628906
1307.758789	48189.621094
1306.686523	47170.300781
1305.614258	46571.089844
1304.541016	46153.261719
1303.467773	44896.585938
1302.394531	44855.148438
1301.321289	44250.031250
1300.247070	43693.273438
1299.172852	43313.113281
1298.098633	42333.125000
1297.024414	41609.972656
1295.950195	41388.417969
1294.875000	40844.265625
1293.799805	40796.859375
1292.724609	40001.410156
1291.649414	39444.160156
1290.573242	39168.394531
1289.497070	38746.429688
1288.420898	38562.351562
1287.344727	37592.222656
1286.267578	37056.605469
1285.190430	37279.589844
1284.113281	36986.339844
1283.036133	36620.140625
1281.958984	36176.476562
1280.880859	35915.585938
1279.802734	35349.023438
1278.724609	35544.699219
1277.646484	34941.953125
1276.567383	34795.550781
1275.488281	34717.609375
1274.409180	34357.039062
1273.330078	33618.289062
1272.250000	33515.574219
1271.169922	33624.757812
1270.089844	33102.996094
1269.009766	33036.878906
1267.929688	33032.257812
1266.848633	32597.433594
1265.767578	32686.207031
1264.686523	32169.724609
1263.605469	32385.931641
1262.523438	31901.564453
1261.441406	31828.958984
1260.359375	31519.953125
1259.277344	31411.087891
1258.194336	31574.955078
1257.111328	31586.531250
1256.028320	31077.939453
1254.945312	30914.748047
1253.862305	30894.662109
1252.778320	30763.353516
1251.694336	30564.009766
1250.610352	30509.968750
1249.526367	30013.570312
1248.441406	30202.353516
1247.356445	29982.878906
1246.271484	29815.636719
1245.186523	29947.669922
1244.100586	29567.478516
1243.014648	29511.445312
1241.928711	29700.085938
1240.842773	29302.058594
1239.756836	29110.251953
1238.669922	29083.785156
1237.583008	28996.216797
1236.496094	28929.048828
1235.408203	28798.558594
1234.321289	28480.378906
1233.233398	28331.943359
1232.145508	28436.800781
1231.056641	28146.017578
1229.968750	27995.480469
1228.879883	27704.908203
1227.791016	27805.283203
1226.702148	27530.679688
1225.612305	27287.804688
1224.522461	27284.345703
1223.432617	27122.880859
1222.342773	26751.601562
1221.252930	27021.263672
1220.162109	26756.181641
1219.071289	26786.660156
1217.980469	26672.812500
1216.888672	26540.974609
1215.797852	26118.435547
1214.706055	25894.375000
1213.614258	25990.330078
1212.522461	26394.835938
1211.429688	25848.812500
1210.336914	25926.699219
1209.244141	25435.027344
1208.151367	25330.664062
1207.057617	25383.853516
1205.964844	25284.042969
1204.871094	25512.654297
1203.776367	25032.820312
1202.682617	24933.140625
1201.587891	24869.464844
1200.493164	24733.902344
1199.398438	24800.609375
1198.303711	24703.302734
1197.208008	24141.134766
1196.112305	23951.941406
1195.016602	24180.386719
1193.920898	24094.507812
1192.824219	24017.638672
1191.728516	23539.208984
1190.631836	23832.591797
1189.534180	23468.771484
1188.437500	23320.345703
1187.339844	23331.136719
1186.242188	23382.265625
1185.144531	23216.019531
1184.045898	22863.904297
1182.948242	22881.496094
1181.849609	22881.166016
1180.750977	22757.699219
1179.651367	22690.240234
1178.552734	22528.818359
1177.453125	22423.398438
1176.353516	22036.166016
1175.252930	21973.382812
1174.153320	21830.128906
1173.052734	22163.105469
1171.952148	21930.466797
1170.851562	21427.539062
1169.750000	21300.154297
1168.648438	21277.802734
1167.546875	21313.523438
1166.445312	21286.710938
1165.343750	21170.619141
1164.241211	20929.595703
1163.138672	20728.835938
1162.036133	20702.164062
1160.932617	20566.214844
1159.830078	20704.597656
1158.726562	20695.779297
1157.623047	20250.087891
1156.518555	20448.617188
1155.415039	19885.078125
1154.310547	19880.888672
1153.206055	19905.654297
1152.100586	19810.169922
1150.996094	19489.884766
1149.890625	19392.298828
1148.785156	19595.158203
1147.679688	19257.318359
1146.573242	19039.730469
1145.466797	19111.326172
1144.360352	19049.492188
1143.253906	18869.871094
1142.147461	19077.019531
1141.040039	18788.591797
1139.932617	18797.958984
1138.825195	18600.769531
1137.716797	18579.082031
1136.609375	18355.378906
1135.500977	18362.605469
1134.391602	18241.119141
1133.283203	17995.439453
1132.173828	18202.369141
1131.065430	17710.632812
1129.955078	17715.765625
1128.845703	17800.697266
1127.736328	17690.558594
1126.625977	17706.767578
1125.515625	17481.492188
1124.404297	17331.619141
1123.293945	17482.970703
1122.182617	17519.130859
1121.071289	17055.023438
1119.959961	17033.716797
1118.847656	16983.656250
1117.735352	16526.589844
1116.623047	16697.818359
1115.510742	16623.533203
1114.398438	16511.697266
1113.285156	16631.982422
1112.171875	16365.505859
1111.058594	16320.071289
1109.944336	16334.292969
1108.831055	16017.253906
1107.716797	16175.044922
1106.602539	15972.957031
1105.487305	15890.129883
1104.373047	15994.888672
1103.257812	15929.738281
1102.142578	15721.252930
1101.026367	15512.854492
1099.911133	15337.612305
1098.794922	15343.184570
1097.678711	15242.976562
1096.561523	15446.856445
1095.445312	15020.657227
1094.328125	14962.421875
1093.210938	14906.412109
1092.092773	14768.974609
1090.975586	14574.370117
1089.857422	14674.706055
1088.739258	14431.803711
1087.621094	14413.352539
1086.501953	14375.116211
1085.383789	14182.996094
1084.264648	14125.040039
1083.144531	13963.819336
1082.025391	13930.101562
1080.905273	13775.578125
1079.785156	13770.463867
1078.665039	13486.487305
1077.543945	13560.466797
1076.423828	13351.277344
1075.302734	13192.647461
1074.181641	13288.578125
1073.059570	12987.452148
1071.937500	13092.156250
1070.816406	12979.755859
1069.693359	12873.977539
1068.571289	12801.117188
1067.448242	12774.300781
1066.325195	12804.452148
1065.202148	12679.085938
1064.079102	12269.106445
1062.955078	12135.147461
1061.831055	12406.175781
1060.707031	12132.189453
1059.583008	11954.584961
1058.458008	12043.920898
1057.333008	12076.356445
1056.208008	12003.826172
1055.083008	11907.280273
1053.957031	11705.867188
1052.832031	11500.168945
1051.706055	11508.651367
1050.579102	11665.652344
1049.453125	11420.784180
1048.326172	11536.254883
1047.199219	11202.023438
1046.071289	11363.318359
1044.944336	11253.994141
1043.816406	11149.079102
1042.688477	11070.378906
1041.560547	10823.815430
1040.431641	10886.916016
1039.303711	10825.755859
1038.174805	10967.274414
1037.044922	10755.797852
1035.916016	10849.350586
1034.786133	10581.367188
1033.656250	10633.548828
1032.526367	10631.288086
1031.395508	10356.991211
1030.265625	10517.977539
1029.134766	10363.464844
1028.002930	10235.117188
1026.872070	10339.488281
1025.740234	10126.413086
1024.608398	10263.364258
1023.476562	10256.834961
1022.344727	10069.983398
1021.211914	10167.758789
1020.079102	10093.930664
1018.946289	10146.062500
1017.812500	9835.658203
1016.679688	9959.441406
1015.545898	9913.924805
1014.411133	9755.621094
1013.277344	9842.468750
1012.142578	9870.732422
1011.007812	9569.450195
1009.873047	9688.792969
1008.738281	9862.261719
1007.602539	9669.500977
1006.466797	9699.933594
1005.331055	9544.105469
1004.195312	9676.315430
1003.058594	9630.958984
1001.921875	9637.564453
1000.785156	9743.702148
999.647461	9354.383789
998.510742	9499.467773
997.373047	9542.854492
996.235352	9625.137695
995.096680	9428.548828
993.958984	9424.377930
992.820312	9409.405273
991.681641	9493.804688
990.541992	9405.393555
989.403320	9440.094727
988.263672	9567.606445
987.123047	9429.593750
985.983398	9306.743164
984.842773	9457.931641
983.703125	9276.889648
982.561523	9320.196289
981.420898	9378.575195
980.279297	9210.597656
979.138672	9299.145508
977.996094	9208.821289
976.854492	9103.457031
975.711914	9245.810547
974.569336	9224.458008
973.426758	9287.071289
972.284180	9145.188477
971.140625	8979.694336
969.997070	9111.163086
968.853516	8982.312500
967.709961	9042.757812
966.565430	9042.975586
965.420898	8849.733398
964.276367	9032.665039
963.131836	9019.992188
961.986328	8856.951172
960.840820	8829.285156
959.695312	9121.573242
958.549805	8846.979492
957.403320	8883.722656
956.256836	8993.410156
955.110352	9025.813477
953.963867	8923.070312
952.816406	8736.734375
951.668945	8865.653320
950.521484	8876.619141
949.374023	8801.853516
948.225586	8799.970703
947.077148	8744.533203
945.928711	8817.624023
944.780273	8682.976562
943.630859	8777.457031
942.481445	8773.437500
941.332031	8895.675781
940.181641	8754.706055
939.032227	8953.899414
937.881836	8639.753906
936.731445	8749.084961
935.580078	8836.993164
934.429688	8813.728516
933.278320	8747.740234
932.125977	8784.319336
930.974609	8718.363281
929.822266	8648.165039
928.669922	8721.033203
927.517578	8582.561523
926.365234	8619.133789
925.211914	8762.366211
924.058594	8739.158203
922.905273	8737.285156
921.750977	8827.094727
920.597656	8714.355469
919.443359	8927.742188
918.289062	8834.204102
917.133789	8491.458984
915.978516	8557.793945
914.823242	8632.617188
913.667969	8511.544922
912.512695	8645.943359
911.356445	8567.479492
910.200195	8495.431641
909.043945	8382.998047
907.886719	8517.306641
906.729492	8409.167969
905.572266	8515.777344
904.415039	8450.190430
903.257812	8359.133789
902.099609	8333.971680
900.941406	8421.387695
899.783203	8419.579102
898.624023	8453.863281
897.464844	8210.076172
896.305664	8348.372070
895.146484	8234.131836
893.986328	8266.301758
892.826172	8169.093262
891.666016	8194.902344
890.505859	8176.183105
889.345703	8257.082031
888.184570	8206.572266
887.023438	8134.899902
885.861328	8101.381836
884.700195	8302.925781
883.538086	7941.234375
882.375977	8180.824707
881.212891	8193.878906
880.050781	8124.414062
878.887695	8046.517090
877.724609	8087.083496
876.560547	8106.487793
875.397461	8034.985352
874.233398	7961.399414
873.069336	8048.433105
871.904297	7896.710449
870.740234	8051.306641
869.575195	7908.094727
868.409180	7893.725586
867.244141	7879.362793
866.078125	7915.651855
864.912109	7882.300781
863.746094	8013.494141
862.580078	8053.947266
861.413086	7782.330566
860.246094	7727.954590
859.079102	7829.560547
857.911133	7686.698730
856.743164	7786.162598
855.575195	7765.529785
854.407227	7900.729980
853.239258	7781.131836
852.070312	7861.543945
850.901367	7824.075684
849.731445	7761.375977
848.562500	7723.944336
847.392578	7873.696777
846.222656	7777.384277
845.052734	7746.278320
843.881836	7795.048340
842.710938	7694.611328
841.540039	7894.624023
840.369141	7781.605957
839.197266	7723.231934
838.025391	7673.280273
836.853516	7780.770508
835.681641	7682.561523
834.508789	7687.198242
833.335938	7920.468750
832.163086	7866.332031
830.989258	7870.924316
829.816406	7927.919922
828.642578	7760.643066
827.467773	7888.877930
826.293945	7725.870117
825.119141	7843.583984
823.944336	7850.266602
822.769531	8001.397949
821.593750	7903.389160
820.418945	7995.850098
819.243164	7937.634766
818.066406	8032.138672
816.890625	8122.418945
815.713867	7892.767090
814.537109	8058.289551
813.360352	7985.492188
812.182617	8015.108398
811.004883	8005.020020
809.827148	7971.961914
808.649414	7972.327148
807.470703	7857.871094
806.291992	8027.321777
805.113281	7921.249512
803.933594	8019.678711
802.754883	7907.395020
801.575195	7959.905273
800.395508	7964.438477
799.214844	7927.279785
798.034180	7902.640625
796.853516	8032.196289
795.672852	8055.456055
794.492188	7968.323730
793.310547	7893.721191
792.128906	7985.692871
790.946289	7948.582031
789.764648	7903.163574
788.582031	7824.477051
787.399414	8066.140137
786.216797	7758.703613
785.033203	7989.879883
783.849609	8013.093262
782.666016	7928.231445
781.482422	8001.312012
780.297852	7891.561035
779.113281	8012.384277
777.928711	7877.760254
776.743164	7921.724121
775.558594	7976.045410
774.373047	7953.566895
773.186523	7991.260254
772.000977	7863.006348
770.814453	7867.523438
769.627930	7859.598145
768.441406	7762.546875
767.253906	8001.253418
766.066406	8005.734375
764.878906	7956.355469
763.691406	7836.584473
762.502930	7913.564941
761.314453	7957.390137
760.125977	7957.733887
758.937500	7956.007324
757.748047	7836.363281
756.558594	7880.165527
755.369141	7897.065918
754.179688	7926.362793
752.989258	7794.425293
751.798828	7679.076660
750.608398	7720.796875
749.416992	7733.579590
748.225586	7853.744141
747.034180	7796.291992
745.842773	7854.462402
744.650391	7772.268555
743.458984	7745.820312
742.265625	7886.478027
741.073242	7781.642090
739.879883	7788.199707
738.686523	7790.630859
737.493164	7805.426758
736.299805	7927.370605
735.105469	7861.781250
733.911133	7781.801270
732.716797	7854.245117
731.521484	7829.890137
730.327148	7696.448730
729.131836	7828.543945
727.935547	7900.913086
726.740234	8041.133301
725.543945	7846.061035
724.347656	7704.533691
723.150391	7996.828613
721.954102	7822.444824
720.756836	7878.278809
719.559570	7753.300781
718.361328	7856.365234
717.164062	7955.277344
715.965820	7764.664551
714.766602	7728.080078
713.568359	7820.797363
712.369141	7810.888184
711.169922	7887.136230
709.970703	8010.519043
708.770508	7787.333984
707.570312	7873.785156
706.370117	7857.724121
705.169922	7903.140625
703.968750	7921.904785
702.767578	7877.168457
701.566406	8055.649414
700.365234	7922.870117
699.163086	7765.586426
697.960938	8052.431152
696.758789	8046.584473
695.555664	7969.148438
694.352539	7987.861328
693.149414	8116.973145
691.946289	7855.598633
690.742188	7933.589844
689.539062	8095.318848
688.333984	7909.702148
687.129883	8132.635254
685.924805	8096.149414
684.719727	8082.134277
683.514648	8072.207031
682.309570	8158.190430
681.103516	8270.657227
679.897461	8217.860352
678.691406	8044.771973
677.484375	8222.429688
676.277344	8077.950684
675.070312	8247.371094
673.863281	8188.521484
672.655273	8217.289062
671.447266	8034.240723
670.239258	8213.701172
669.031250	8309.619141
667.822266	8189.761230
666.613281	8128.963867
665.404297	8294.003906
664.194336	8182.361328
662.984375	8221.243164
661.774414	8323.129883
660.564453	8248.138672
659.353516	8480.030273
658.142578	8344.085938
656.931641	8261.012695
655.720703	8238.899414
654.508789	8525.406250
653.296875	8403.778320
652.084961	8432.382812
650.872070	8574.598633
649.660156	8467.238281
648.447266	8670.226562
647.233398	8520.309570
646.020508	8556.962891
644.806641	8540.903320
643.592773	8676.826172
642.377930	8474.363281
641.164062	8598.087891
639.949219	8551.655273
638.733398	8695.552734
637.518555	8590.418945
636.302734	8803.049805
635.086914	8598.797852
633.871094	8754.693359
632.654297	8823.559570
631.437500	8734.684570
630.220703	8761.072266
629.003906	8811.700195
627.786133	8842.099609
626.568359	8733.094727
625.350586	8795.811523
624.131836	8818.115234
622.914062	8747.543945
621.695312	8973.703125
620.475586	9119.045898
619.256836	9014.154297
618.037109	8933.513672
616.817383	8850.890625
615.596680	9115.083984
614.375977	8899.418945
613.155273	8945.833984
611.934570	9115.133789
610.713867	9101.047852
609.492188	9213.847656
608.270508	9036.650391
607.048828	9135.322266
605.826172	9235.961914
604.603516	9258.081055
603.380859	9175.580078
602.157227	9135.351562
600.934570	9133.346680
